x,temperature,pressure,something Else
0.01,0.999950000416665,0.00999983333416666,0.989950167082499
0.02,0.999800006666578,0.0199986666933331,0.979801339973245
0.03,0.999550033748988,0.0299955002024957,0.969554533546492
0.04,0.999200106660978,0.0399893341866342,0.959210772474344
0.05,0.998750260394966,0.0499791692706783,0.948771091124288
0.06,0.998200539935204,0.0599640064794446,0.93823653345576
0.07,0.99755100025328,0.0699428473375328,0.927608152915747
0.08,0.996801706302619,0.0799146939691727,0.916887012333447
0.09,0.995952733011994,0.089878549198011,0.906074183813983
0.1,0.995004165278026,0.0998334166468282,0.895170748631197
0.11,0.993956097956697,0.109778300837175,0.884177797119522
0.12,0.992808635853866,0.119712207288919,0.873096428564947
0.13,0.991561893714788,0.129634142619695,0.861927751095093
0.14,0.990215996212637,0.139543114644236,0.850672881568401
0.15,0.988771077936042,0.149438132473599,0.839332945462443
0.16,0.987227283375627,0.159318206614246,0.827909076761381
0.17,0.985584766909561,0.169182349066996,0.816402417842565
0.18,0.983843692788121,0.179029573425824,0.804814119362297
0.19,0.98200423511727,0.188858894976501,0.79314534014077
0.2,0.980066577841242,0.198669330795061,0.78139724704618
0.21,0.978030914724148,0.2084598998461,0.769571014878049
0.22,0.975897449330606,0.218229623080869,0.757667826249736
0.23,0.973666395005375,0.227977523535188,0.745688871470186
0.24,0.97133797485203,0.237702626427135,0.733635348424895
0.25,0.968912421710645,0.247403959254523,0.721508462456122
0.26,0.966389978134513,0.257080551892155,0.709309426242358
0.27,0.963770896365891,0.266731436688831,0.697039459677059
0.28,0.961055438310771,0.276355648564114,0.684699789746657
0.29,0.958243875512697,0.285952225104836,0.672291650407862
0.3,0.955336489125606,0.29552020666134,0.659816282464266
0.31,0.952333569885713,0.305058636443443,0.64727493344227
0.32,0.949235418082441,0.314566560616118,0.634668857466323
0.33,0.946042343528387,0.324043028394868,0.621999315133519
0.34,0.942754665528346,0.333487092140814,0.609267573387532
0.35,0.939372712847379,0.342897807455451,0.596474905391928
0.36,0.935896823677935,0.35227423327509,0.583622590402845
0.37,0.932327345606034,0.361615431964962,0.570711913641073
0.38,0.92866463557651,0.370920469412983,0.557744166163528
0.39,0.924909059857313,0.380188415123161,0.544720644734152
0.4,0.921060994002885,0.389418342308651,0.531642651694235
0.41,0.917120822816605,0.398609327984423,0.518511494832182
0.42,0.913088940312308,0.40776045305957,0.505328487252738
0.43,0.908965749674885,0.416870802429211,0.492094947245674
0.44,0.904751663219963,0.425939465066,0.478812198153964
0.45,0.900447102352677,0.43496553411123,0.465481568241447
0.46,0.896052497525525,0.44394810696552,0.452104390560006
0.47,0.891568288195329,0.452886285379068,0.438682002816261
0.48,0.886994922779284,0.461779175541483,0.425215747237801
0.49,0.882332858610122,0.470625888171158,0.411706970438964
0.5,0.877582561890373,0.479425538604203,0.39815702328617
0.51,0.872744507645751,0.488177246882908,0.384567260762844
0.52,0.86781917967765,0.496880137843737,0.370939041833913
0.53,0.862807070514761,0.505533341204847,0.357273729309914
0.54,0.857708681363824,0.514135991653113,0.343572689710711
0.55,0.852524522059506,0.522687228930659,0.329837293128846
0.56,0.847255111013416,0.531186197920883,0.316068913092533
0.57,0.841900975162269,0.539632048733969,0.3022689264283
0.58,0.836462649915187,0.548023936791874,0.288438713123313
0.59,0.830940679100163,0.556361022912784,0.27457965618738
0.6,0.825335614909678,0.564642473395035,0.260693141514643
0.61,0.819648017845479,0.572867460100481,0.246780557744998
0.62,0.813878456662534,0.581035160537305,0.232843296125229
0.63,0.808027508312152,0.58914475794227,0.218882750369882
0.64,0.802095757884293,0.597195441362392,0.204900316521901
0.65,0.796083798549056,0.60518640573604,0.190897392813016
0.66,0.789992231497365,0.613116851973434,0.176875379523931
0.67,0.783821665880849,0.62098598703656,0.16283567884429
0.68,0.777572718750928,0.628793024018469,0.148779694732459
0.69,0.771246014997107,0.636537182221968,0.134708832775139
0.7,0.764842187284488,0.644217687237691,0.120624500046797
0.71,0.758361875990508,0.651833771021537,0.106528104968972
0.72,0.751805729140895,0.659384671971473,0.0924210571694219
0.73,0.74517440234487,0.666869635003698,0.0783047673411725
0.74,0.738468558729588,0.674287911628145,0.0641806471014429
0.75,0.731688868873821,0.681638760023334,0.0500501088504867
0.76,0.724836010740905,0.688921445110551,0.0359145656303539
0.77,0.717910669610943,0.696135238627357,0.0217754309835867
0.78,0.710913538012277,0.70327941920041,0.00763411881186715
0.79,0.703845315652236,0.710353272417608,-0.00650795676537164
0.8,0.696706709347165,0.717356090899523,-0.0206493815523573
0.81,0.689498432951747,0.724287174370142,-0.0347887414183954
0.82,0.682221207287614,0.731145829726896,-0.0489246224392822
0.83,0.674875760071267,0.737931371109963,-0.0630556110386955
0.84,0.667462825841308,0.744643119970859,-0.0771802941295511
0.85,0.659983145884982,0.751280405140293,-0.0912972592553104
0.86,0.652437468164052,0.757842562895277,-0.105405094731225
0.87,0.644826547240001,0.764328937025505,-0.119502389785504
0.88,0.63715114419858,0.770738878898969,-0.133587734700389
0.89,0.629412026573697,0.777071747526824,-0.147659720953127
0.9,0.621609968270665,0.783326909627483,-0.161716941356819
0.91,0.613745749488812,0.78950373968995,-0.175757990201139
0.92,0.605820156643463,0.795601620036366,-0.189781463392903
0.93,0.597833982287298,0.801619940883777,-0.203785958596479
0.94,0.589788025031098,0.807558100405114,-0.217770075374016
0.95,0.581683089463884,0.813415504789374,-0.23173241532549
0.96,0.573519986072457,0.819191568300998,-0.245671582228542
0.97,0.565299531160354,0.82488571333845,-0.259586182178096
0.98,0.557022546766217,0.83049737049197,-0.273474823725753
0.99,0.548689860581588,0.83602597860052,-0.287336118018933
1,0.54030230586814,0.841470984807897,-0.301168678939757
1.01,0.531860721374355,0.846831844618015,-0.31497112324366
1.02,0.52336595125165,0.852108021949363,-0.328742070697713
1.03,0.514818844969955,0.857298989188603,-0.342480144218648
1.04,0.506220257232778,0.862404227243338,-0.35618397001056
1.05,0.497571047891727,0.867423225594017,-0.36985217770229
1.06,0.488872081860528,0.872355482344986,-0.383483400484459
1.07,0.480124229028534,0.877200504274682,-0.397076275246148
1.08,0.47132836417374,0.881957806884948,-0.410629442711208
1.09,0.462485366875301,0.886626914449487,-0.424141547574186
1.1,0.453596121425577,0.891207360061435,-0.437611238635858
1.11,0.444661516741707,0.895698685680048,-0.451037168938341
1.12,0.435682446276712,0.900100442176505,-0.464417995899793
1.13,0.426659807930157,0.904412189378826,-0.477752381448668
1.14,0.417594503958358,0.908633496115883,-0.491038992157525
1.15,0.408487440884157,0.912763940260521,-0.504276499376364
1.16,0.399339529406273,0.916803108771767,-0.517463579365494
1.17,0.39015168430823,0.920750597736136,-0.530598913427905
1.18,0.380924824366882,0.92460601240802,-0.543681188041139
1.19,0.371659872260533,0.928368967249167,-0.556709094988634
1.2,0.362357754476674,0.932039085967226,-0.569681331490553
1.21,0.35301940121933,0.935616001553386,-0.582596600334055
1.22,0.343645746316047,0.939099356319068,-0.595453610003021
1.23,0.334237727124503,0.942488801931697,-0.608251074807195
1.24,0.324796284438776,0.945783999449539,-0.620987715010763
1.25,0.315322362395269,0.948984619355586,-0.633662256960318
1.26,0.305816908378289,0.952090341590516,-0.646273433212226
1.27,0.296280872925319,0.955100855584692,-0.658819982659374
1.28,0.286715209631955,0.958015860289225,-0.671300650657269
1.29,0.277120875056558,0.960835064206073,-0.683714189149515
1.3,0.267498828624587,0.963558185417193,-0.696059356792606
1.31,0.25785003253267,0.966184951612734,-0.708334919080065
1.32,0.248175451652373,0.968715100118265,-0.720539648465892
1.33,0.238476053433723,0.971148377921045,-0.732672324487321
1.34,0.228752807808459,0.973484541695319,-0.74473173388686
1.35,0.219006687093041,0.975723357826659,-0.756716670733618
1.36,0.209238665891419,0.977864602435316,-0.768625936543897
1.37,0.199449720997573,0.979908061398614,-0.780458340401041
1.38,0.189640831297834,0.98185353037236,-0.792212699074525
1.39,0.179812977673,0.983700814811277,-0.803887837138277
1.4,0.169967142900241,0.98544972998846,-0.815482587088219
1.41,0.160104311554831,0.98710010101385,-0.826995789459019
1.42,0.150225469911686,0.98865176285172,-0.838426292940034
1.43,0.140331605846737,0.990104560337178,-0.849772954490441
1.44,0.130423708738146,0.991458348191686,-0.861034639453541
1.45,0.120502769367367,0.992712991037588,-0.872210221670222
1.46,0.11056977982007,0.993868363411645,-0.883298583591575
1.47,0.100625733386932,0.994924349777581,-0.894298616390649
1.48,0.0906716244643097,0.99588084453764,-0.90520922007333
1.49,0.0807084484548006,0.996737752043143,-0.916029303588343
1.5,0.0707372016677029,0.997494986604054,-0.926757784936352
1.51,0.0607588812193859,0.998152472497548,-0.937393591278162
1.52,0.0507744849335792,0.998710143975583,-0.947935659042004
1.53,0.040785011241591,0.999167945271476,-0.958382934029885
1.54,0.0307914590824661,0.999525830605479,-0.968734371523013
1.55,0.0207948278030924,0.999783764189357,-0.978988936386265
1.56,0.0107961170582674,0.999941720229966,-0.989145603171699
1.57,0.000796326710733263,0.999999682931835,-0.999203356221101
1.58,-0.00920354326880834,0.99995764649874,-1.00916118976755
1.59,-0.0192024929016926,0.999815615134291,-1.01901810803598
1.6,-0.0291995223012888,0.999573603041505,-1.02877312534279
1.61,-0.0391936317729877,0.999231634421391,-1.03842526619438
1.62,-0.0491838219141705,0.998789743470524,-1.04797356538469
1.63,-0.0591690937141481,0.998247974377632,-1.05741706809178
1.64,-0.069148448654062,0.997606381319174,-1.06675482997324
1.65,-0.0791208888067339,0.996865028453919,-1.07598591726065
1.66,-0.089085416936459,0.996023989916537,-1.085109406853
1.67,-0.099041036598728,0.99508334981018,-1.09412438640891
1.68,-0.108986752239871,0.994043202198076,-1.10302995443795
1.69,-0.118921569296612,0.992903651094118,-1.11182522039073
1.7,-0.128844494295525,0.991664810452469,-1.12050930474799
1.71,-0.138754534952378,0.990326804156158,-1.12908133910854
1.72,-0.148650700271364,0.988889766004701,-1.13754046627607
1.73,-0.158532000644198,0.987353839700716,-1.14588584034491
1.74,-0.168397447949077,0.985719178835553,-1.15411662678463
1.75,-0.178246055649492,0.983985946873937,-1.16223200252343
1.76,-0.18807683889288,0.982154317137618,-1.1702311560305
1.77,-0.197888814609109,0.980224472788045,-1.17811328739715
1.78,-0.207681001608784,0.978196606808045,-1.18587760841683
1.79,-0.217452420681365,0.976070921982524,-1.19352334266389
1.8,-0.227202094693087,0.973847630878195,-1.20104972557128
1.81,-0.236929048684675,0.971526955822315,-1.20845600450699
1.82,-0.246632309968834,0.969109128880456,-1.21574143884929
1.83,-0.256310908227523,0.966594391833298,-1.22290530006082
1.84,-0.26596387560898,0.963982996152448,-1.22994687176143
1.85,-0.275590246824513,0.9612752029753,-1.23686544979981
1.86,-0.285189059245021,0.958471283078914,-1.24366034232393
1.87,-0.294759352997261,0.955571516852944,-1.2503308698502
1.88,-0.304300171059833,0.952576194271595,-1.25687636533143
1.89,-0.313810559358882,0.94948561486463,-1.26329617422351
1.9,-0.323289566863503,0.946300087687414,-1.26958965455092
1.91,-0.332736245680845,0.943019931290011,-1.27575617697086
1.92,-0.342149651150898,0.939645473685325,-1.28179512483622
1.93,-0.35152884194096,0.936177052316306,-1.28770589425727
1.94,-0.360872880139767,0.9326150140222,-1.29348789416197
1.95,-0.370180831351287,0.928959715003869,-1.29914054635516
1.96,-0.379451764788155,0.925211520788168,-1.30466328557632
1.97,-0.388684753364752,0.921370806191395,-1.31005555955615
1.98,-0.397878873789916,0.91743795528181,-1.31531682907173
1.99,-0.407033206659266,0.913413361341225,-1.32044656800049
2,-0.416146836547142,0.909297426825682,-1.32544426337282
2.01,-0.425218852098152,0.905090563325201,-1.33030941542335
2.02,-0.4342483461183,0.900793191522627,-1.33504153764093
2.03,-0.443234415665709,0.89640574115156,-1.33964015681727
2.04,-0.452176162140912,0.89192865095338,-1.34410481309429
2.05,-0.461072691376713,0.887362368633375,-1.34843506001009
2.06,-0.469923113727602,0.882707350815974,-1.35263046454358
2.07,-0.47872654415872,0.877964062999078,-1.3566906071578
2.08,-0.487482102334359,0.873132979507516,-1.36061508184188
2.09,-0.496188912705999,0.868214583445613,-1.36440349615161
2.1,-0.504846104599857,0.863209366648874,-1.36805547124873
2.11,-0.513452812303959,0.858117829634809,-1.37157064193877
2.12,-0.522008175154707,0.852940481552876,-1.37494865670758
2.13,-0.530511337622945,0.84767784013357,-1.37818917775651
2.14,-0.538961449399512,0.842330431636646,-1.38129188103616
2.15,-0.547357665480271,0.836898790798498,-1.38425645627877
2.16,-0.555699146250613,0.831383460778683,-1.3870826070293
2.17,-0.56398505756941,0.825784993105608,-1.38977005067502
2.18,-0.572214570852437,0.820103947621374,-1.39231851847381
2.19,-0.580386863155222,0.814340892425796,-1.39472775558102
2.2,-0.588501117255346,0.80849640381959,-1.39699752107494
2.21,-0.59655652173416,0.802571066246747,-1.39912758798091
2.22,-0.60455227105793,0.796565472236087,-1.40111774329402
2.23,-0.612487565658385,0.790480222342005,-1.40296778800039
2.24,-0.62036161201268,0.78431592508442,-1.4046775370971
2.25,-0.628173622722739,0.778073196887921,-1.40624681961066
2.26,-0.635922816594002,0.771752662020126,-1.40767547861413
2.27,-0.64360841871354,0.765354952529254,-1.40896337124279
2.28,-0.651229660527545,0.758880708180922,-1.41011036870847
2.29,-0.658785779918188,0.752330576394171,-1.41111635631236
2.3,-0.666276021279824,0.74570521217672,-1.41198123345654
2.31,-0.673699635594561,0.739005278059471,-1.41270491365403
2.32,-0.681055880507152,0.732231444030252,-1.4132873245374
2.33,-0.688344020399238,0.72538438746682,-1.41372840786606
2.34,-0.695563326462902,0.718464793069126,-1.41402811953203
2.35,-0.702713076773554,0.711473352790844,-1.4141864295644
2.36,-0.70979255636212,0.704410765770176,-1.4142033221323
2.37,-0.716801057286543,0.697277738259938,-1.41407879554648
2.38,-0.723737878702569,0.690074983556936,-1.4138128622595
2.39,-0.730602326933837,0.68280322193064,-1.41340554886448
2.4,-0.737393715541245,0.675463180551151,-1.4128568960924
2.41,-0.744111365391593,0.668055593416491,-1.41216695880808
2.42,-0.750754604725491,0.660581201279201,-1.41133580600469
2.43,-0.757322769224544,0.653040751572265,-1.41036352079681
2.44,-0.763815202077774,0.645434998334371,-1.40925020041214
2.45,-0.770231254047308,0.637764702134504,-1.40799595618181
2.46,-0.776570283533293,0.630030629995892,-1.40660091352919
2.47,-0.782831656638065,0.622233555319305,-1.40506521195737
2.48,-0.789014747229531,0.614374257805712,-1.40338900503524
2.49,-0.795118937003784,0.606453523378315,-1.4015724603821
2.5,-0.801143615546934,0.598472144103956,-1.39961575965089
2.51,-0.807088180396146,0.590430918113913,-1.39751909851006
2.52,-0.81295203709989,0.582330649524082,-1.39528268662397
2.53,-0.818734599277382,0.574172148354573,-1.39290674763195
2.54,-0.824435288677222,0.565956230448703,-1.39039151912593
2.55,-0.830053535235222,0.557683717391417,-1.38773725262664
2.56,-0.835588777131408,0.549355436427127,-1.38494421355853
2.57,-0.841040460846201,0.540972220376989,-1.38201268122319
2.58,-0.846408041215776,0.532534907555621,-1.3789429487714
2.59,-0.851690981486566,0.524044341687276,-1.37573532317384
2.6,-0.856888753368947,0.515501371821464,-1.37239012519041
2.61,-0.862000837090063,0.506906852248053,-1.36890768933812
2.62,-0.867026721445803,0.498261642411839,-1.36528836385764
2.63,-0.871965903851917,0.4895666068266,-1.36153251067852
2.64,-0.876817890394281,0.480822614988648,-1.35764050538293
2.65,-0.881582195878286,0.472030541289883,-1.35361273716817
2.66,-0.886258343877352,0.463191264930345,-1.3494496088077
2.67,-0.890845866780576,0.454305669830306,-1.34515153661088
2.68,-0.895344305839492,0.445374644541871,-1.34071895038136
2.69,-0.899753211213941,0.436399082160126,-1.33615229337407
2.7,-0.904072142017061,0.42737988023383,-1.33145202225089
2.71,-0.90830066635937,0.418317940675659,-1.32661860703503
2.72,-0.912438361391958,0.409214169672017,-1.32165253106398
2.73,-0.916484813348769,0.40006947759242,-1.31655429094119
2.74,-0.920439617587981,0.390884778898452,-1.31132439648643
2.75,-0.924302378632464,0.381660992052332,-1.3059633706848
2.76,-0.928072710209333,0.372399039425056,-1.30047174963439
2.77,-0.931750235288572,0.363099847204168,-1.29485008249274
2.78,-0.935334586120739,0.353764345301143,-1.28909893142188
2.79,-0.938825404273736,0.34439346725839,-1.28321887153213
2.8,-0.942222340668658,0.334988150155905,-1.27721049082456
2.81,-0.945525055614696,0.32554933451756,-1.27107439013226
2.82,-0.948733218843107,0.316077964217054,-1.26481118306016
2.83,-0.951846509540242,0.306574986383523,-1.25842149592377
2.84,-0.954864616379626,0.297041351306832,-1.25190596768646
2.85,-0.95778723755309,0.287478012342544,-1.24526524989563
2.86,-0.960614080800952,0.277885925816587,-1.23850000661754
2.87,-0.963344863441243,0.268266050929618,-1.23161091437086
2.88,-0.965979312397975,0.258619349661111,-1.22459866205909
2.89,-0.968517164228447,0.248946786673153,-1.2174639509016
2.9,-0.970958165149591,0.239249329213982,-1.21020749436357
2.91,-0.973302071063349,0.229527947021264,-1.20283001808461
2.92,-0.975548647581083,0.219783612225117,-1.1953322598062
2.93,-0.977697670047013,0.210017299250899,-1.18771496929791
2.94,-0.979748923560684,0.200229984721771,-1.17997890828245
2.95,-0.981702202998454,0.190422647361027,-1.17212485035948
2.96,-0.983557313034006,0.180596267894233,-1.16415358092824
2.97,-0.985314068157884,0.170751828951145,-1.15606589710903
2.98,-0.986972292696038,0.160890314967456,-1.14786260766349
2.99,-0.988531820827396,0.151012712086344,-1.13954453291374
3,-0.989992496600445,0.141120008059867,-1.13111250466031
3.01,-0.991354173948826,0.131213192150184,-1.12256736609901
3.02,-0.992616716705937,0.12129325503063,-1.11390997173657
3.03,-0.993779998618556,0.11136118868665,-1.10514118730521
3.04,-0.994843903359459,0.101417986316602,-1.09626188967606
3.05,-0.995808324539061,0.0914646422324372,-1.0872729667715
3.06,-0.996673165716047,0.0815021517602691,-1.07817531747632
3.07,-0.997438340407019,0.0715315111408437,-1.06896985154786
3.08,-0.998103772095146,0.0615537174299131,-1.05965748952506
3.09,-0.998669394237814,0.0515697683985346,-1.05023916263635
3.1,-0.999135150273279,0.0415806624332905,-1.04071581270657
3.11,-0.999500993626328,0.0315873984364539,-1.03108839206278
3.12,-0.999766887712928,0.021590975726096,-1.02135786343902
3.13,-0.999932805943894,0.0115923939361583,-1.01152519988005
3.14,-0.99999873172754,0.00159265291648683,-1.00159138464403
3.15,-0.999964658471342,-0.00840724736714862,-0.991557411104193
3.16,-0.999830589582598,-0.0184063069330538,-0.981424282649545
3.17,-0.999596538468086,-0.0284035258836038,-0.971193012584482
3.18,-0.999262528532721,-0.0383979045052354,-0.960864624027486
3.19,-0.998828593177219,-0.0483884433684141,-0.950440149808804
3.2,-0.998294775794753,-0.0583741434275801,-0.939920632367173
3.21,-0.997661129766618,-0.0683540061210478,-0.92930712364557
3.22,-0.996927718456887,-0.0783270334708653,-0.918600684986022
3.23,-0.996094615206081,-0.0882922281826076,-0.907802387023473
3.24,-0.99516190332383,-0.0982485937451087,-0.896913309578722
3.25,-0.994129676080546,-0.108195134530108,-0.885934541550438
3.26,-0.992998036698093,-0.118130855891817,-0.874867180806275
3.27,-0.991767098339465,-0.12805476426638,-0.863712334073085
3.28,-0.990436984097473,-0.137965867271227,-0.852471116826246
3.29,-0.989007826982433,-0.147863173804319,-0.841144653178114
3.3,-0.987479769908865,-0.157745694143248,-0.829734075765617
3.31,-0.985852965681203,-0.167612440044218,-0.818240525636985
3.32,-0.984127576978514,-0.17746242484086,-0.806665152137654
3.33,-0.982303776338232,-0.187294663542903,-0.795009112795328
3.34,-0.980381746138899,-0.19710817293467,-0.783273573204229
